Timestamp,CH_1,CH_2,CH_3,CH_4,CH_5,CH_6,CH_7,CH_8
1751460530.0769503,73,67,76,79,41,46,119,27
1751460530.0998874,69,63,78,83,38,44,119,24
1751460530.121887,68,64,86,90,36,38,119,24
1751460530.1447988,57,70,93,87,39,42,60,22
1751460530.1667688,55,72,99,114,41,42,41,20
1751460530.1966586,63,75,123,158,44,47,33,24
1751460530.2186637,61,70,117,154,45,47,32,23
1751460530.256529,88,120,187,196,46,37,27,25
1751460530.2794673,84,114,189,184,49,31,24,22
1751460530.302706,76,116,185,205,54,33,23,22
1751460530.3386102,57,116,183,218,112,54,25,21
1751460530.3765407,40,73,111,160,227,61,26,23
1751460530.3994787,42,96,120,157,241,60,27,23
1751460530.4224167,45,94,91,140,269,53,26,25
1751460530.4443588,54,94,86,146,265,63,29,28
1751460530.4673283,57,93,105,153,299,75,33,27
1751460530.4892654,56,91,105,153,306,74,32,27
1751460530.5192158,48,75,90,135,281,69,30,23
1751460530.542128,37,93,112,126,296,58,27,20
1751460530.579057,59,96,92,112,306,53,26,19
1751460530.6099474,60,92,101,116,310,55,28,20
1751460530.6318865,63,95,104,117,312,54,28,21
1751460530.6548529,63,81,86,126,329,55,27,21
1751460530.6777647,41,86,103,131,347,56,27,21
1751460530.700703,43,117,135,149,325,76,28,22
1751460530.7535615,40,112,134,144,329,77,27,22
1751460530.7894654,34,94,105,93,165,49,25,20
1751460530.819366,31,69,79,100,137,58,29,21
1751460530.8423047,28,56,66,97,158,57,27,20
1751460530.8792374,28,56,65,110,287,56,26,22
1751460530.9027328,26,48,65,91,291,57,26,22
1751460530.9394686,25,55,69,106,288,62,23,20
1751460530.9624076,23,56,77,138,256,61,23,21
1751460530.9993095,22,53,79,134,232,55,19,20
1751460531.0222757,23,47,78,134,214,42,22,22
1751460531.0591497,23,59,83,100,212,35,24,22
1751460531.0821157,24,60,86,114,168,46,24,22
1751460531.118989,24,58,79,119,136,45,22,22
1751460531.1419585,26,55,84,133,133,47,22,22
1751460531.164866,27,53,76,133,132,46,21,21
1751460531.1868353,28,61,82,122,109,37,21,20
1751460531.2168658,30,74,97,125,121,38,23,18
1751460531.2387795,29,73,96,132,123,35,22,19
1751460531.262312,29,66,96,133,106,35,22,19
1751460531.2992094,29,53,80,136,115,33,23,18
1751460531.3221202,31,59,73,116,110,70,25,19
1751460531.3590224,36,81,102,140,105,99,26,21
1751460531.3819885,37,80,101,139,97,108,25,21
1751460531.4048991,44,107,131,172,83,114,29,25
1751460531.4417999,60,188,232,234,80,87,30,27
1751460531.4647706,59,188,236,242,127,87,30,27
1751460531.5016396,59,176,228,242,183,77,29,28
1751460531.5246844,37,81,144,146,180,72,27,24
1751460531.5476227,34,59,110,161,183,61,25,24
1751460531.5845437,33,63,98,147,96,45,23,24
1751460531.6214828,25,59,82,128,106,60,25,20
1751460531.645425,26,87,96,109,131,64,26,23
1751460531.681295,27,96,119,98,145,63,26,23
1751460531.7042608,34,106,134,107,136,57,27,25
1751460531.7411966,48,106,150,117,213,52,28,27
1751460531.7641306,48,121,151,121,248,55,29,24
1751460531.8010328,52,133,154,167,331,61,31,24
1751460531.8249407,54,140,158,162,340,67,32,22
1751460531.8618422,52,116,144,158,268,55,30,26
1751460531.8848085,49,99,149,124,256,55,29,26
1751460531.9212892,47,86,131,156,189,55,29,27
1751460531.945257,44,75,115,167,286,65,32,24
1751460531.9811568,32,51,80,174,325,103,42,22
1751460532.0050979,38,43,70,178,304,107,42,20
1751460532.0419674,52,82,105,163,284,107,43,23
1751460532.064932,56,97,129,167,321,81,34,24
1751460532.0868745,58,100,130,163,325,83,35,24
1751460532.1318743,60,94,124,133,362,82,37,25
1751460532.161767,56,76,104,122,225,82,34,25
1751460532.1847055,55,81,112,161,215,89,34,28
1751460532.2216058,40,84,113,181,219,89,32,26
1751460532.2445455,38,72,103,199,214,82,32,25
1751460532.2814786,40,56,86,184,281,65,29,20
1751460532.305413,38,42,61,180,293,65,30,20
1751460532.3344994,40,40,54,148,239,59,28,21
1751460532.3644211,40,38,42,89,313,86,29,22
1751460532.3873308,37,39,44,99,287,110,37,24
1751460532.4092739,37,38,45,111,316,134,42,25
1751460532.432585,42,38,44,114,325,135,42,25
1751460532.4545262,41,34,48,133,317,150,44,23
1751460532.4844468,37,33,50,120,322,139,39,22
1751460532.507413,38,31,48,111,292,131,35,21
1751460532.5293257,32,30,48,109,280,130,36,20
1751460532.5522656,33,32,43,79,325,128,34,22
1751460532.574822,33,29,33,69,304,123,33,21
1751460532.6197302,31,35,54,107,214,96,31,23
1751460532.6416757,26,33,67,159,210,76,29,21
1751460532.66461,28,35,70,164,209,67,28,22
1751460532.7025092,33,41,69,166,207,61,26,23
1751460532.7244864,39,51,80,163,216,53,27,23
1751460532.7473974,39,52,79,123,149,88,36,24
1751460532.7843277,33,46,84,139,222,112,39,23
1751460532.8072379,31,42,83,143,221,113,39,21
1751460532.851866,29,44,87,165,202,85,32,19
1751460532.8818228,34,45,78,149,89,52,27,20
1751460532.90419,34,51,82,149,94,59,27,23
1751460532.9277334,34,48,60,122,81,63,25,23
1751460532.9646327,30,44,47,94,105,116,29,24
1751460532.9876032,26,39,48,95,106,119,29,23
1751460533.0245004,30,32,55,80,97,121,28,21
1751460533.0474432,31,33,59,84,146,124,28,23
1751460533.0843136,30,34,66,115,146,108,32,23
1751460533.1072526,30,32,62,125,146,105,31,21
1751460533.1521344,36,32,59,123,107,151,35,21
1751460533.181085,39,28,49,98,91,154,89,23
1751460533.2049904,38,26,42,77,94,154,91,23
1751460533.2279568,37,28,44,83,87,122,93,22
1751460533.2498703,29,25,52,108,80,98,93,21
1751460533.2867994,39,27,58,114,74,52,46,26
1751460533.3097115,46,27,61,113,69,46,39,26
1751460533.3466115,46,30,64,213,81,98,30,30
1751460533.3695512,53,31,67,214,75,100,67,34
1751460533.4074757,88,46,59,216,71,108,105,45
1751460533.430419,91,45,49,149,82,111,107,44
1751460533.4672885,502,162,46,85,90,127,119,120
1751460533.48923,694,215,53,84,101,137,190,216
1751460533.5271294,721,233,57,105,92,138,205,225
1751460533.5490701,737,237,75,115,84,129,204,225
1751460533.5869963,575,194,70,111,70,110,99,109
1751460533.6099088,604,182,69,112,68,76,62,100
1751460533.6468387,584,225,83,74,61,57,60,100
1751460533.669747,613,236,94,73,52,58,62,122
1751460533.7076466,378,239,108,68,49,65,54,108
1751460533.7295876,516,253,111,79,52,90,62,128
1751460533.774644,497,312,124,83,54,133,74,132
1751460533.8035927,501,313,124,86,52,152,71,120
1751460533.827502,408,379,147,94,69,153,87,127
1751460533.8498623,490,357,147,95,70,134,91,166
1751460533.8867598,581,386,143,94,76,135,92,175
1751460533.9098113,576,383,143,91,79,113,90,178
1751460533.9467425,477,276,130,83,71,133,71,137
1751460533.9696536,340,245,128,79,65,128,66,113
1751460533.9925916,280,180,118,76,63,148,73,111
1751460534.0296025,326,159,132,92,56,175,69,96
1751460534.0743713,294,153,98,83,49,183,69,70
1751460534.1043231,213,132,163,142,63,168,62,61
1751460534.127231,188,118,164,192,66,192,68,53
1751460534.1491988,181,141,167,202,75,213,71,47
1751460534.18707,165,149,167,199,73,212,63,39
1751460534.2100096,153,158,178,227,66,209,63,38
1751460534.2319775,131,154,196,342,78,184,55,35
1751460534.26988,76,101,199,356,79,122,40,29
1751460534.29179,55,94,192,353,85,123,42,28
1751460534.3296895,50,55,151,219,87,106,37,25
1751460534.3526275,48,49,144,205,82,102,35,24
1751460534.3895285,36,49,168,212,76,95,35,26
1751460534.4119449,30,44,138,174,95,98,34,25
1751460534.449846,30,47,155,223,116,108,39,28
1751460534.471785,30,46,160,231,120,104,39,27
1751460534.5166655,29,41,154,286,265,107,39,27
1751460534.5465584,27,35,124,270,314,86,34,23
1751460534.5694964,29,39,131,291,317,79,34,25
1751460534.5924356,37,38,123,277,298,73,32,25
1751460534.6297097,41,44,121,271,128,59,29,23
1751460534.65165,40,45,120,282,113,58,30,23
1751460534.6895566,35,42,108,272,270,102,36,23
1751460534.711964,33,37,95,258,272,109,39,23
1751460534.7498622,32,40,85,163,281,113,39,25
1751460534.7725322,31,39,89,170,266,106,37,24
1751460534.80979,30,40,129,213,392,91,35,27
1751460534.8317556,45,56,129,219,411,98,37,32
1751460534.869628,106,92,123,190,415,104,45,44
1751460534.8925674,111,92,77,124,410,106,44,43
1751460534.9299705,111,98,71,68,142,64,35,39
1751460534.9518845,95,94,67,62,119,57,29,33
1751460534.9898133,173,140,68,52,86,49,32,39
1751460535.0119054,180,143,69,53,66,53,33,37
1751460535.0497768,168,126,89,127,76,65,78,36
1751460535.0727155,91,78,83,126,69,66,79,29
1751460535.0946565,103,75,78,124,73,83,81,33
1751460535.116956,171,105,82,125,63,84,82,36
1751460535.1399267,175,109,65,66,44,79,51,37
1751460535.169843,176,109,62,133,68,80,39,36
1751460535.1927552,171,110,65,137,64,70,36,33
1751460535.2150416,182,99,64,137,66,70,37,40
1751460535.2519386,193,95,62,73,61,78,84,39
1751460535.2818325,193,94,56,59,61,79,88,39
1751460535.311753,143,69,46,46,64,72,88,41
1751460535.3346899,137,64,45,43,57,76,90,53
1751460535.3725884,138,63,27,38,46,64,46,57
1751460535.394535,160,79,33,41,47,70,66,88
1751460535.4394097,115,70,37,39,50,65,72,93
1751460535.4693296,137,74,39,37,52,67,79,118
1751460535.4922686,127,66,34,33,49,59,61,97
1751460535.5152383,130,64,32,32,49,58,60,91
1751460535.5521078,152,80,31,30,67,49,67,73
1751460535.5750475,135,81,32,33,73,49,62,56
1751460535.6119483,115,71,30,33,73,47,59,57
1751460535.6349185,84,54,33,35,67,45,45,53
1751460535.671788,78,62,49,65,45,57,34,43
1751460535.694727,103,69,66,79,43,61,37,49
1751460535.7316282,157,124,67,86,60,63,32,46
1751460535.7545702,285,161,88,90,62,65,37,52
1751460535.7924669,418,215,102,72,63,43,46,69
1751460535.8149428,433,218,110,74,50,42,46,69
1751460535.8518453,427,216,117,71,44,48,66,108
1751460535.8747554,430,225,111,66,39,50,63,111
1751460535.912168,418,248,108,64,42,66,66,114
1751460535.9341085,468,247,128,70,42,99,65,102
1751460535.9720073,412,205,127,67,47,117,56,76
1751460535.9949455,452,203,132,79,57,135,72,90
1751460536.0168867,474,229,129,81,58,147,71,88
1751460536.0547857,405,212,94,82,56,165,72,89
1751460536.0916874,390,300,95,83,49,153,54,63
1751460536.1146255,378,326,105,81,49,149,56,69
1751460536.1365669,374,329,120,84,48,133,55,69
1751460536.182444,361,342,176,98,49,149,62,75
1751460536.2115793,355,268,166,102,59,198,74,90
1751460536.234554,349,257,155,92,83,200,69,87
1751460536.2574875,352,279,78,70,90,184,68,95
1751460536.2794294,371,251,78,79,103,194,68,92
1751460536.3023403,336,248,83,75,102,187,61,73
1751460536.3312912,289,229,119,78,80,142,56,71
1751460536.3542025,304,205,129,82,68,137,50,53
1751460536.3771412,260,193,130,73,49,120,44,49
1751460536.4140704,257,185,144,109,50,125,42,46
1751460536.4370272,232,185,168,127,55,119,41,42
1751460536.45992,182,177,166,137,70,120,40,35
1751460536.4968483,166,183,165,144,76,106,34,29
1751460536.534752,165,175,212,283,98,89,37,32
1751460536.5567214,167,148,215,295,96,88,36,31
1751460536.5955908,144,128,222,302,104,93,38,32
1751460536.6245522,141,122,216,419,111,101,43,29
1751460536.6624105,119,144,239,472,152,112,39,28
1751460536.691367,100,125,242,491,148,102,39,28
1751460536.7152708,100,126,237,394,137,86,34,27
1751460536.737239,93,101,252,347,226,85,37,32
1751460536.77511,85,98,257,379,309,62,38,32
1751460536.7970939,55,93,250,370,314,66,37,31
1751460536.8349774,49,97,155,327,246,58,35,28
1751460536.8572412,52,100,137,314,244,64,34,30
1751460536.8941474,50,110,141,353,261,73,36,30
1751460536.9170926,47,110,145,351,285,75,36,31
1751460536.9549913,34,78,164,325,227,64,33,24
1751460536.9769328,44,73,154,303,273,68,31,22
1751460537.0148315,50,70,154,249,371,94,35,24
1751460537.0368006,52,70,130,209,403,103,38,25
1751460537.06769,53,67,135,205,410,104,36,23
1751460537.0906286,69,59,134,211,384,97,35,23
1751460537.1514933,76,61,124,186,284,97,35,23
1751460537.179419,65,73,94,198,270,92,36,23
1751460537.2023306,69,84,101,194,275,135,44,25
1751460537.2262676,73,95,101,127,272,146,46,28
1751460537.2701495,72,114,96,102,184,158,45,28
1751460537.2990716,73,107,114,134,134,121,35,28
1751460537.3379667,90,115,117,145,98,118,34,27
1751460537.3589127,89,92,104,136,86,96,31,27
1751460537.3808525,85,88,92,108,106,98,33,26
1751460537.4207456,60,50,73,105,244,106,40,28
1751460537.441691,40,47,68,102,251,108,41,23
1751460537.4785907,40,47,64,120,255,107,39,24
1751460537.5015295,51,64,87,118,257,97,35,22
1751460537.5474107,63,70,117,156,303,83,35,23
1751460537.5703502,61,68,124,145,305,75,33,24
1751460537.5933015,57,68,124,203,304,72,33,23
1751460537.6142323,51,54,107,204,299,71,31,22
1751460537.6441522,89,65,65,174,123,52,32,25
1751460537.6680884,122,93,57,172,103,50,34,26
1751460537.6900294,155,131,58,94,90,64,63,32
1751460537.7119923,160,144,65,82,92,67,67,37
1751460537.7418914,168,166,66,68,75,79,69,37
1751460537.7803016,140,142,127,119,74,75,46,36
1751460537.803233,138,132,130,154,67,68,40,31
1751460537.8251753,135,133,132,161,88,71,36,33
1751460537.8461456,114,109,135,163,94,71,35,35
1751460537.8690574,118,116,135,166,94,69,33,34
1751460537.8989773,108,112,65,131,94,62,32,31
1751460537.9209468,109,116,86,170,74,76,35,31
1751460537.9588187,92,119,89,175,71,75,36,41
1751460537.9817562,268,174,96,175,73,85,46,94
1751460538.0188625,309,182,74,85,74,89,52,104
1751460538.0418017,318,179,79,84,77,87,51,104
1751460538.0787306,207,100,69,101,73,93,44,67
1751460538.1016407,255,126,68,101,85,98,53,85
1751460538.1465213,339,188,67,90,120,119,63,93
1751460538.1684895,349,191,69,63,121,115,64,95
1751460538.1983821,303,172,60,51,108,112,53,65
1751460538.2213206,247,131,62,42,63,87,46,56
1751460538.2592208,212,125,62,45,52,88,36,48
1751460538.2811606,214,127,67,84,52,80,33,44
1751460538.3190591,169,94,65,129,57,66,29,39
1751460538.3410017,187,117,61,130,58,77,32,43
1751460538.3788998,190,140,63,120,64,89,36,61
1751460538.4028351,188,141,59,114,59,89,37,60
1751460538.4257765,163,127,74,130,68,86,39,61
1751460538.4467185,123,101,100,159,104,70,35,56
1751460538.4686594,87,70,103,163,110,66,32,40
1751460538.4985795,66,57,197,194,162,57,33,34
1751460538.5215178,57,52,232,189,218,70,35,29
1751460538.5594184,45,57,256,247,224,91,42,28
1751460538.5813577,43,55,258,314,239,90,43,27
1751460538.6182613,37,50,153,318,290,84,35,28
1751460538.6412005,29,53,161,289,482,96,30,25
1751460538.6790988,29,48,143,312,614,118,36,23
1751460538.7030354,32,47,147,309,621,120,36,25
1751460538.724976,39,53,143,280,575,114,34,25
1751460538.7459404,55,81,106,264,428,93,33,24
1751460538.7684314,58,84,99,209,252,70,28,25
1751460538.7933383,58,87,106,123,263,83,34,25
1751460538.8142285,56,92,103,105,245,120,41,24
1751460538.8381374,71,96,103,101,229,132,50,29
1751460538.8600802,74,96,103,101,205,127,49,30
1751460538.889001,74,98,111,181,137,116,44,30
1751460538.9199188,126,116,158,332,197,87,34,30
1751460538.941861,140,117,159,343,199,86,33,34
1751460538.9638014,142,115,162,349,198,89,33,34
1751460539.0027268,129,96,157,287,131,82,32,30
1751460539.024203,87,62,156,281,118,61,30,28
1751460539.046144,59,46,159,280,116,59,29,25
1751460539.084041,83,77,97,215,345,52,32,25
1751460539.1212492,96,78,85,192,359,52,30,26
1751460539.144188,97,80,82,202,371,53,29,26
1751460539.1810887,73,52,72,156,273,76,27,23
1751460539.211009,103,88,74,148,252,76,28,23
1751460539.2409294,112,91,64,111,251,92,31,24
1751460539.263841,118,95,75,144,290,103,32,25
1751460539.302783,124,73,78,175,237,94,31,26
1751460539.3254473,120,80,81,184,235,94,30,25
1751460539.3473873,141,90,86,180,214,78,27,27
1751460539.3683307,151,90,86,198,105,50,25,27
1751460539.4002466,282,203,89,177,59,38,30,45
1751460539.4231844,337,220,89,170,52,50,129,61
1751460539.4451268,356,241,99,227,53,52,138,66
1751460539.4680936,448,288,94,194,56,53,140,73
1751460539.489037,476,305,104,207,56,52,144,80
1751460539.519957,550,310,138,255,56,47,88,85
1751460539.5408907,587,324,130,195,49,47,75,106
1751460539.5638084,576,367,133,193,54,53,86,105
1751460539.6027317,559,334,110,119,79,84,76,104
1751460539.625644,427,307,102,76,76,81,61,92
1751460539.6615784,298,224,101,67,70,80,52,85
1751460539.683518,319,222,77,58,56,73,72,112
1751460539.7213864,466,265,78,60,53,80,76,121
1751460539.7433605,599,297,79,61,54,81,77,140
1751460539.7812586,653,294,69,53,48,84,53,129
1751460539.8131418,618,284,62,52,40,71,48,127
1751460539.8360806,552,273,62,52,39,75,42,124
1751460539.864005,409,247,54,42,35,81,39,76
1751460539.8939698,383,239,64,43,34,75,39,71
1751460539.923845,428,249,71,48,30,79,41,68
1751460539.9463627,411,272,72,48,29,71,41,70
1751460539.9839287,420,316,103,71,33,71,46,77
1751460540.0058672,425,315,129,104,43,69,47,79
1751460540.0452719,508,396,301,150,58,96,51,98
1751460540.0681784,428,357,310,158,61,112,50,97
1751460540.0884778,448,347,311,160,65,115,49,97
1751460540.1113873,449,347,366,203,96,116,47,95
1751460540.1340468,396,304,355,203,97,118,50,96
1751460540.1639402,288,237,270,238,108,100,37,45
1751460540.185881,257,236,264,236,112,110,41,42
1751460540.224777,222,171,149,302,125,110,39,40
1751460540.247746,211,149,155,339,132,108,44,39
1751460540.2772002,185,133,157,341,127,98,42,36
1751460540.2991674,182,127,156,349,124,82,39,36
1751460540.3230767,174,139,131,433,128,73,37,34
1751460540.345018,159,127,179,412,179,68,33,32
1751460540.3659892,109,110,174,411,242,68,35,32
1751460540.3898978,117,108,188,412,253,67,35,34
1751460540.4128366,106,70,200,321,259,67,35,34
1751460540.4357746,103,69,182,345,375,66,38,34
1751460540.4637277,97,68,190,349,354,62,31,30
1751460540.487637,58,62,179,348,351,63,31,25
1751460540.510576,53,59,175,380,439,78,30,22
1751460540.5325172,51,50,159,291,361,76,29,26
1751460540.5544658,45,54,210,304,437,84,32,27
1751460540.5774307,42,56,230,353,439,91,36,28
1751460540.6063192,36,61,227,332,453,93,39,27
1751460540.6452258,46,50,143,306,444,147,43,23
1751460540.6681535,47,47,101,249,446,152,42,22
1751460540.6900957,67,61,91,243,429,149,43,23
1751460540.7110693,80,69,67,203,334,145,39,22
1751460540.7429545,85,72,90,176,300,138,45,26
1751460540.7634907,85,76,99,172,285,130,44,25
1751460540.7864003,73,80,113,184,290,129,44,25
1751460540.8083425,80,81,120,188,290,127,44,28
1751460540.8462446,74,85,119,141,121,48,25,24
1751460540.869205,73,89,125,139,110,44,24,25
1751460540.9061072,65,77,108,127,107,45,20,22
1751460540.9290187,67,80,107,123,117,65,21,24
1751460540.9659472,65,82,126,137,107,64,25,27
1751460540.9898555,62,81,133,133,109,65,26,29
1751460541.0108202,63,79,139,137,92,77,29,28
1751460541.0337393,67,83,140,134,86,76,35,32
1751460541.0636857,67,84,89,109,130,106,37,31
1751460541.0865977,66,87,76,108,139,106,37,29
1751460541.1085389,57,85,86,110,137,104,35,28
1751460541.1464367,76,66,88,109,103,84,40,32
1751460541.1683779,75,68,97,105,93,73,48,38
1751460541.206277,77,69,109,89,63,95,67,42
1751460541.2282178,76,83,143,94,53,99,81,66
1751460541.2681115,82,103,208,103,68,159,84,88
1751460541.297034,157,106,203,93,81,163,86,88
1751460541.3259575,315,92,187,80,88,168,91,135
1751460541.348895,338,144,287,105,94,210,103,139
1751460541.3708668,350,146,283,99,87,170,102,134
1751460541.394773,407,144,280,101,91,210,113,144
1751460541.4308429,399,166,283,101,92,233,111,138
1751460541.4537537,441,138,159,66,88,198,91,141
1751460541.476692,444,126,133,61,101,202,92,139
1751460541.5066113,382,140,119,58,79,149,88,142
1751460541.528896,359,124,99,53,76,124,89,110
1751460541.567789,417,158,53,39,53,118,108,147
1751460541.588733,482,169,53,41,48,110,106,160
1751460541.6266015,572,174,52,39,60,113,102,190
1751460541.6485713,571,212,47,36,58,112,131,237
1751460541.6864758,795,347,62,48,70,103,185,282
1751460541.7083821,801,368,64,48,69,94,190,277
1751460541.7532887,790,349,66,53,66,78,184,247
1751460541.7916164,542,239,52,44,97,160,163,188
1751460541.8285491,663,264,57,51,112,232,234,229
1751460541.8514555,624,251,51,43,111,236,235,204
1751460541.8883843,613,285,53,48,115,307,235,212
1751460541.9112957,477,260,56,51,122,291,200,195
1751460541.9482257,695,381,69,60,135,299,275,391
1751460541.971135,695,361,66,58,127,231,294,396
1751460542.009035,775,410,86,72,124,230,461,448
1751460542.0314803,800,421,89,70,168,256,470,453
1751460542.068416,715,337,87,69,199,261,440,350
1751460542.0913212,706,361,87,66,206,275,455,353
1751460542.1282501,599,378,66,52,200,251,353,299
1751460542.1511912,620,406,70,52,175,247,353,323
1751460542.189059,671,361,71,53,159,218,302,283
1751460542.2110615,635,267,61,44,131,169,271,276
1751460542.248933,570,171,59,47,113,152,222,234
1751460542.2709317,520,223,53,50,95,152,217,234
1751460542.3088424,462,312,62,55,95,159,258,227
1751460542.3308103,485,343,65,57,86,115,257,277
1751460542.36971,489,310,60,52,83,135,266,299
1751460542.3916206,405,280,48,46,78,147,229,277
1751460542.428521,407,260,48,49,74,165,266,250
1751460542.4514875,381,274,52,51,82,162,259,242
1751460542.4883611,418,258,57,59,140,147,245,224
1751460542.5114045,399,240,59,61,149,159,219,198
1751460542.5333421,352,219,56,57,148,134,157,171
1751460542.5713184,344,160,51,48,120,119,123,121
1751460542.6101828,343,150,58,45,57,80,156,137
1751460542.6331508,343,149,59,53,123,119,157,136
1751460542.6860104,237,147,69,84,149,181,155,113
1751460542.7139363,206,168,72,91,165,338,98,53
1751460542.7528331,249,174,73,94,123,379,91,54
1751460542.7733667,254,215,73,76,108,361,98,73
1751460542.796303,279,216,66,70,94,358,106,89
1751460542.8431783,241,207,67,51,85,179,104,90
1751460542.8641481,275,201,67,50,122,136,97,91
1751460542.8870604,278,157,56,47,133,118,92,76
1751460542.9329367,227,137,50,69,145,131,88,64
1751460542.9539084,170,133,41,75,110,114,88,60
1751460542.984825,157,132,52,86,153,111,71,61
1751460543.0217261,151,104,52,74,157,113,59,42
1751460543.0506501,142,84,92,90,169,118,47,47
1751460543.0735881,134,82,95,149,115,118,42,45
1751460543.0975235,141,119,102,180,96,113,48,47
1751460543.1204352,146,128,102,187,91,101,87,54
1751460543.1563401,156,141,74,183,93,103,99,50
1751460543.1793058,156,145,67,155,99,100,101,52
1751460543.2101965,117,114,62,120,99,82,97,51
1751460543.2311697,141,81,62,106,106,79,66,45
1751460543.2541401,140,76,58,105,91,64,59,44
1751460543.2907324,137,56,72,143,150,78,56,41
1751460543.3136432,85,50,72,158,174,101,55,38
1751460543.3511157,93,46,71,172,184,281,51,35
1751460543.3740258,86,45,69,152,199,290,50,35
1751460543.4189634,94,49,45,87,179,332,55,39
1751460543.4418752,91,46,35,82,172,247,48,38
1751460543.4708252,77,49,53,92,141,214,50,41
1751460543.4937372,75,47,52,93,136,175,47,40
1751460543.5306675,138,47,58,94,117,154,51,39
1751460543.553635,137,47,44,116,116,147,52,38
1751460543.5994835,145,58,46,118,97,123,53,38
1751460543.6284645,86,68,51,116,143,121,42,36
1751460543.6514027,79,65,49,107,142,118,40,33
1751460543.6733434,82,65,50,109,138,114,39,34
1751460543.6962557,79,55,43,111,140,111,35,30
1751460543.7212145,73,54,38,106,95,93,31,28
1751460543.7421324,65,41,34,104,65,75,29,30
1751460543.7646132,62,41,33,65,59,65,28,29
1751460543.7935348,63,53,36,44,118,69,29,26
1751460543.8160665,70,60,35,50,193,75,29,24
1751460543.8539374,110,76,55,53,205,94,43,34
1751460543.87588,173,91,63,52,203,105,47,37
1751460543.913778,204,95,65,44,98,104,55,61
1751460543.9357734,226,95,64,41,87,103,59,63
1751460543.973673,211,107,50,47,66,91,70,81
1751460543.995614,224,117,53,46,56,82,93,74
1751460544.0196066,233,145,60,49,55,95,109,84
1751460544.041522,206,174,61,47,60,88,113,83
1751460544.0644608,214,168,60,50,85,95,109,85
1751460544.0934138,199,165,59,52,95,95,83,67
1751460544.1161523,191,134,52,49,93,91,61,54
1751460544.1540384,172,88,52,44,66,94,61,59
1751460544.183986,166,81,52,43,53,97,58,64
1751460544.2139046,187,159,48,38,48,85,93,71
1751460544.2358475,238,162,44,35,50,86,93,74
1751460544.273746,270,178,47,37,53,78,93,74
1751460544.295687,254,159,47,37,54,81,71,74
1751460544.3186257,291,138,55,41,56,93,81,89
1751460544.3415377,262,153,57,43,73,93,100,83
1751460544.364476,247,151,54,45,72,95,103,82
1751460544.393411,239,147,56,45,70,92,102,82
1751460544.416337,168,124,51,42,66,75,85,57
1751460544.4397569,133,105,82,60,42,67,51,52
1751460544.4846373,137,96,91,131,68,66,38,43
1751460544.5135586,151,124,91,137,93,76,34,49
1751460544.552482,157,119,66,132,97,88,36,49
1751460544.5734265,167,134,56,67,86,102,43,62
1751460544.5963435,208,158,58,67,88,106,77,102
1751460544.6192763,243,147,51,59,73,109,77,101
1751460544.6422164,254,148,56,56,71,106,80,104
1751460544.679144,239,146,52,51,64,100,79,95
1751460544.717015,210,163,52,41,46,80,50,53
1751460544.7389839,219,174,44,38,49,71,44,47
1751460544.7838943,215,163,51,39,52,61,34,42
1751460544.8068364,182,130,57,86,57,56,27,34
1751460544.8357546,200,88,63,95,58,62,25,29
1751460544.8586764,205,87,67,97,56,65,28,32
1751460544.8965652,254,104,58,56,41,76,32,31
1751460544.9185057,245,124,59,43,36,73,34,40
1751460544.9564052,214,154,63,46,42,91,58,71
1751460544.9783454,186,155,63,42,43,89,59,73
1751460545.01675,144,130,51,37,40,76,56,69
1751460545.0386915,120,113,42,34,38,56,42,49
1751460545.0616298,111,83,46,28,39,53,30,40
1751460545.0845685,97,75,49,55,54,55,31,35
1751460545.1065102,107,85,48,58,59,53,29,35
1751460545.1294482,103,90,50,57,58,53,25,33
1751460545.151417,104,90,57,63,61,58,26,30
1751460545.175326,105,93,63,126,55,60,24,30
1751460545.1972673,91,82,74,168,71,60,24,27
1751460545.2182407,78,77,79,173,83,65,28,25
1751460545.2561152,95,79,77,176,125,60,29,27
1751460545.27862,105,79,69,141,312,68,31,27
1751460545.3162315,100,75,85,176,328,81,34,27
1751460545.3401668,82,66,85,182,344,82,32,26
1751460545.3840792,119,67,89,189,281,67,29,25
1751460545.4289875,124,67,69,161,385,60,31,26
1751460545.4688528,139,74,100,228,383,63,32,26
1751460545.5047574,113,120,124,228,468,69,36,29
1751460545.5272026,114,120,125,230,431,65,31,28
1751460545.549143,97,119,114,170,460,59,31,29
1751460545.5790098,131,127,126,235,611,74,45,36
1751460545.6029503,136,98,128,232,529,68,45,39
1751460545.6388545,133,88,120,319,598,79,46,40
1751460545.6617749,168,115,115,341,646,104,48,37
1751460545.6847007,145,132,115,316,610,99,39,41
1751460545.707639,142,133,107,323,610,98,38,39
1751460545.7515216,146,134,113,273,577,93,37,38
1751460545.7834363,138,87,118,299,396,67,46,47
1751460545.8038504,134,84,115,287,382,64,44,47
1751460545.8340275,131,87,112,255,450,106,52,48
1751460545.8558884,144,101,110,214,438,106,50,42
1751460545.878854,122,95,106,192,528,104,44,37
1751460545.917723,163,102,110,187,533,105,45,35
1751460545.9386954,170,106,94,170,459,49,33,31
1751460545.9636014,144,93,95,139,455,50,28,27
1751460545.984545,154,119,93,128,353,49,27,27
1751460546.03048,110,112,109,160,354,48,26,28
1751460546.066304,94,98,88,138,304,53,26,22
1751460546.104202,96,81,69,122,353,57,25,19
1751460546.134123,96,78,73,175,331,53,23,20
1751460546.158031,93,75,74,171,285,45,23,19
1751460546.1789746,85,72,72,163,218,45,23,20
1751460546.2088964,121,78,73,165,423,88,32,22
1751460546.2398124,144,96,77,140,457,95,37,27
1751460546.3076305,143,90,82,137,459,94,37,29
1751460546.3375509,124,97,62,95,220,45,25,24
1751460546.3684683,111,88,65,99,268,59,27,25
1751460546.389412,109,88,61,169,313,101,33,23
1751460546.4113808,112,73,59,166,313,101,32,23
1751460546.451274,131,73,57,154,284,97,31,24
1751460546.4721906,123,79,52,104,144,60,29,25
1751460546.51707,133,88,49,75,89,47,27,25
1751460546.54001,122,78,53,78,109,53,29,24
1751460546.5998769,126,81,58,117,174,64,28,25
1751460546.6317637,122,100,56,115,177,70,27,26
1751460546.6537058,107,98,53,99,112,70,24,31
1751460546.7045696,114,99,49,69,95,63,24,31
1751460546.7355185,146,64,44,57,54,88,32,29
1751460546.7724502,136,73,45,50,72,90,32,31
1751460546.8711858,135,74,41,43,95,87,33,33
1751460546.894124,133,80,36,35,105,69,30,28
1751460546.9160657,156,110,30,33,99,79,30,26
1751460546.9599488,149,114,30,31,96,74,28,40
1751460546.9809215,176,153,31,29,67,80,29,43
1751460547.0038588,199,139,33,28,64,75,29,45
1751460547.0272946,226,150,32,29,67,73,29,47
1751460547.049236,245,146,39,34,66,71,44,55
1751460547.0721745,241,139,38,37,68,69,49,53
1751460547.1090772,266,187,38,41,79,78,52,56
1751460547.138997,265,189,35,38,78,82,40,37
1751460547.1609364,266,191,35,36,78,84,43,42
1751460547.1845727,235,160,32,37,76,104,55,39
1751460547.221473,215,159,34,33,65,102,63,40
1751460547.2444434,201,150,36,34,72,102,66,47
1751460547.2813451,195,158,39,32,72,72,48,42
1751460547.3042705,191,166,36,31,67,65,46,42
1751460547.3272247,189,156,36,32,54,60,37,40
1751460547.3491616,212,174,35,32,57,62,31,35
1751460547.3780758,242,172,35,33,58,79,32,41
1751460547.4012706,250,164,33,34,60,80,39,42
1751460547.425207,249,162,34,31,54,81,40,46
1751460547.4611182,229,184,37,30,37,77,39,42
1751460547.4840765,213,179,38,32,61,75,40,37
1751460547.5069878,195,191,39,34,70,76,30,36
1751460547.5439193,229,176,37,66,78,70,42,37
1751460547.5668578,220,149,40,71,81,62,41,35
1751460547.6037588,251,151,44,72,56,57,40,35
1751460547.6269152,245,149,41,60,57,64,47,36
1751460547.6488562,238,143,39,45,85,64,43,26
1751460547.6717954,247,148,38,38,92,60,43,28
1751460547.6937358,233,145,37,35,94,66,44,31
1751460547.7246542,231,132,36,32,90,62,34,32
1751460547.746594,197,124,35,30,57,56,32,33
1751460547.7839675,173,85,31,25,40,49,29,31
1751460547.8138876,182,82,34,27,39,47,24,26
1751460547.8442907,139,70,35,79,112,61,27,26
1751460547.8662603,162,78,35,86,114,60,27,26
1751460547.9043891,134,82,70,102,120,55,28,25
1751460547.9263253,140,102,84,95,80,54,27,24
1751460547.972182,158,130,92,70,58,60,38,31
1751460548.0011342,189,140,75,48,46,70,41,40
1751460548.0237765,190,130,74,45,48,68,41,41
1751460548.0472076,166,121,76,46,64,75,41,36
1751460548.0831056,187,131,66,44,66,62,28,33
1751460548.1219945,264,163,68,43,64,58,33,40
1751460548.1430728,271,172,50,34,41,47,40,41
1751460548.1670284,259,156,46,33,30,45,40,41
1751460548.2118893,228,133,43,30,29,55,38,63
1751460548.2339985,218,142,44,32,34,64,35,68
1751460548.2788513,243,164,44,30,39,59,33,71
1751460548.30082,175,154,49,33,41,47,31,45
1751460548.3237622,189,159,56,32,36,38,28,40
1751460548.3465693,191,131,55,34,40,44,26,36
1751460548.3845003,226,134,58,41,51,47,41,35
1751460548.4137654,240,136,53,38,52,48,44,39
1751460548.4369864,251,131,43,37,54,44,45,36
1751460548.481839,204,117,44,32,53,49,36,32
1751460548.5038078,228,134,42,30,55,68,32,33
1751460548.527225,210,154,43,29,53,71,37,35
1751460548.5491664,250,166,39,31,53,71,39,38
1751460548.5870655,300,170,47,31,54,68,39,40
1751460548.6094475,295,163,52,32,47,59,37,46
1751460548.646347,267,133,59,34,38,61,45,46
1751460548.6693141,260,152,57,37,51,69,48,47
1751460548.6922257,209,153,59,37,53,69,49,43
1751460548.7371364,166,151,50,34,65,60,41,29
1751460548.7670853,151,123,43,27,57,46,29,28
1751460548.7890277,175,128,35,25,55,43,33,31
1751460548.8269293,151,115,45,27,39,50,30,29
1751460548.8494484,154,115,45,27,36,49,29,30
1751460548.8863776,96,79,45,28,51,52,25,27
1751460548.9093719,91,77,43,29,56,55,27,30
1751460548.9472613,78,66,30,24,56,63,25,29
1751460548.9692447,89,63,30,28,68,62,25,29
1751460549.006132,67,51,30,28,72,60,25,27
1751460549.0290751,84,62,31,28,71,55,26,26
1751460549.066974,120,68,29,22,58,50,25,28
1751460549.088883,118,67,27,21,43,46,23,23
1751460549.1268094,108,65,36,32,56,43,20,26
1751460549.1487436,71,59,37,32,60,55,24,30
1751460549.1866493,81,65,37,35,58,72,35,31
1751460549.2095625,80,65,36,33,61,73,36,31
1751460549.247398,114,76,35,29,73,74,36,26
1751460549.2691398,111,82,36,27,75,69,34,27
1751460549.2920506,126,83,41,25,74,61,44,28
1751460549.3139918,126,82,41,29,73,62,44,28
1751460549.3599002,147,71,43,32,51,55,46,32
1751460549.3888197,131,68,53,38,43,53,28,33
1751460549.4117296,153,92,63,38,38,50,30,39
1751460549.4346173,141,117,62,35,37,55,41,38
1751460549.4715483,158,114,62,40,43,68,44,40
1751460549.509418,158,110,48,40,38,72,50,36
1751460549.5318947,159,101,51,41,38,69,43,35
1751460549.5687914,160,112,50,40,67,70,43,32
1751460549.591704,150,108,50,40,74,63,41,31
1751460549.6136718,143,109,52,37,81,73,31,26
1751460549.6366365,135,97,54,37,83,73,30,29
1751460549.665559,114,83,49,29,60,62,26,29
1751460549.6894956,117,79,47,28,52,61,25,28
1751460549.7114086,174,68,43,30,41,50,39,31
1751460549.7345889,180,66,39,28,36,45,41,25
1751460549.7565238,177,65,47,30,39,46,44,26
1751460549.7794976,162,63,46,32,43,51,43,24
1751460549.8093865,76,68,52,30,52,57,33,22
1751460549.8323245,58,67,53,31,54,58,31,23
1751460549.8542926,49,63,45,28,50,58,28,20
1751460549.8921654,36,66,51,36,47,46,25,20
1751460549.9295387,29,57,52,36,59,63,25,17
1751460549.951507,29,53,54,38,95,70,25,19
1751460549.989379,28,58,48,31,99,74,26,20
1751460550.0117795,28,52,41,31,96,72,24,20
1751460550.034384,27,54,36,32,97,72,25,20
1751460550.0563262,27,55,35,31,102,68,25,22
1751460550.0792642,22,56,33,31,101,65,26,21
1751460550.1091845,28,45,30,30,99,59,26,21
1751460550.131971,29,44,28,28,96,54,24,22
1751460550.1688726,28,39,31,28,76,50,23,20
1751460550.191832,30,49,32,29,79,49,25,20
1751460550.229096,27,50,33,27,86,58,26,22
1751460550.2520068,26,48,31,27,72,59,26,21
1751460550.2889414,22,54,38,28,55,55,23,19
1751460550.31191,23,53,39,31,57,57,22,20
1751460550.333822,22,55,40,32,44,58,26,19
1751460550.3577578,21,57,41,34,56,60,27,19
1751460550.4335606,26,59,39,31,65,58,28,19
1751460550.455502,27,51,38,31,65,59,27,21
1751460550.4914088,24,40,32,31,62,64,26,23
1751460550.5143452,24,40,33,34,58,63,25,22
1751460550.5442646,24,43,33,34,56,61,26,23
1751460550.5662065,25,43,32,33,54,60,23,23
1751460550.5901465,23,43,43,36,56,63,27,27
1751460550.6130843,24,41,42,37,97,79,30,25
1751460550.6350312,25,40,41,40,103,83,32,27
1751460550.6570005,24,41,43,39,103,84,34,28
1751460550.7412045,24,39,39,37,103,84,32,25
1751460550.7701259,23,64,37,28,56,48,24,21
1751460550.7930655,24,64,37,25,56,46,24,22
1751460550.8220153,25,63,37,28,60,52,26,22
1751460550.8449283,25,50,34,28,57,51,24,22
1751460550.867865,26,44,30,30,63,54,25,22
1751460550.8898065,27,46,33,33,76,56,24,22
1751460550.9137437,24,49,34,32,70,65,30,20
1751460550.9346871,25,56,36,34,71,66,28,22
1751460550.9805636,26,55,40,33,66,67,27,23
1751460551.0334258,26,53,37,31,45,55,27,21
1751460551.055367,28,52,43,30,44,55,24,22
1751460551.0773103,30,56,41,26,39,47,25,24
1751460551.0992494,29,56,42,25,36,46,24,24
1751460551.122197,27,45,37,24,35,41,24,24
1751460551.1441298,25,39,35,26,34,48,24,26
1751460551.1670685,29,59,40,29,38,55,27,27
1751460551.189287,27,61,38,32,43,64,28,25
1751460551.2132025,28,62,35,33,45,65,26,25
1751460551.2341464,30,64,39,33,45,66,28,24
1751460551.2580836,30,52,37,41,85,78,27,24
1751460551.2940142,30,50,62,50,88,72,27,25
1751460551.3169549,30,50,80,92,111,86,30,23
1751460551.3538542,26,48,79,96,88,73,25,25
1751460551.3767927,25,52,67,92,85,72,24,24
1751460551.421668,24,56,53,54,62,48,22,24
1751460551.4445832,25,56,48,50,64,38,21,22
1751460551.4745045,53,55,44,47,77,39,25,21
1751460551.4974742,55,54,46,72,138,59,30,24
1751460551.5349052,58,57,46,91,330,72,33,27
1751460551.556878,50,61,47,91,339,76,34,26
1751460551.5788178,51,57,43,89,337,75,32,28
1751460551.601727,49,54,36,70,318,66,26,27
1751460551.6386552,46,66,42,43,113,62,26,25
1751460551.6615663,46,62,39,39,86,63,24,24
1751460551.6845057,29,63,42,40,81,62,27,24
1751460551.7214067,29,73,47,57,69,59,27,24
1751460551.7443724,28,61,46,71,75,54,26,22
1751460551.7742655,28,55,46,74,81,57,23,21
1751460551.7962363,26,52,38,65,80,57,21,20
1751460551.8341393,27,38,38,44,69,61,24,21
1751460551.8570435,26,37,38,56,64,61,24,20
1751460551.8939724,27,37,73,110,73,60,26,20
1751460551.9168842,28,39,70,111,123,56,27,19
1751460551.953785,43,35,72,107,128,50,67,23
1751460551.9767559,59,32,40,58,133,46,74,28
1751460551.9986925,61,35,33,54,161,50,76,28
1751460552.0365634,66,50,37,42,138,66,78,30
1751460552.0744932,47,64,42,75,132,70,37,26
1751460552.0964332,52,68,47,99,110,72,34,25
1751460552.1343322,58,68,50,119,91,63,28,28
1751460552.1563044,57,81,63,165,90,67,29,28
1751460552.1942034,90,77,63,159,69,69,31,30
1751460552.2161722,97,83,59,158,73,69,29,30
1751460552.2391114,117,124,67,145,71,68,30,28
1751460552.2770116,125,134,67,73,66,65,27,26
1751460552.2989829,100,130,78,87,61,67,28,23
1751460552.3368516,65,86,84,92,75,70,28,25
1751460552.3588054,78,70,72,85,152,73,31,26
1751460552.3967235,70,98,79,62,210,87,31,28
1751460552.4186633,74,97,74,91,216,87,30,28
1751460552.456559,58,99,70,125,163,86,31,25
1751460552.4794705,55,85,73,125,129,76,30,22
1751460552.5163991,56,75,62,103,50,62,32,24
1751460552.5393422,58,65,63,95,53,55,28,25
1751460552.5762117,67,64,60,56,63,63,25,28
1751460552.599162,82,83,59,52,65,57,23,26
1751460552.6370485,104,83,53,40,59,57,22,26
1751460552.6669686,96,77,46,39,56,53,21,25
1751460552.688938,95,83,44,35,42,58,25,25
1751460552.7188597,73,65,49,35,47,59,26,25
1751460552.7567627,75,67,45,32,49,60,29,25
1751460552.77867,87,58,38,31,50,58,27,22
1751460552.8165715,83,48,34,31,57,58,24,25
1751460552.839542,60,46,34,31,68,57,22,25
1751460552.8764126,42,57,61,43,73,55,22,26
1751460552.8993847,38,64,69,50,74,77,25,23
1751460552.9212923,37,64,70,48,71,78,24,23
1751460552.9581945,46,60,71,50,140,81,23,24
1751460552.9811645,44,52,57,45,142,77,23,26
1751460553.003101,44,46,48,36,141,52,19,25
1751460553.0405943,30,61,50,39,138,70,20,20
1751460553.08747,32,67,53,33,145,73,23,21
1751460553.1333466,31,62,47,37,156,66,23,23
1751460553.1612723,27,55,41,35,149,61,25,22
1751460553.2001698,27,61,37,37,71,76,26,23
1751460553.2211123,27,66,40,28,62,80,26,21
1751460553.258014,25,63,39,31,53,84,27,24
1751460553.2809553,25,64,40,27,39,76,24,25
1751460553.3198824,30,53,39,31,45,79,27,25
1751460553.3407946,30,54,38,30,44,70,24,24
1751460553.3857048,29,45,43,32,44,75,25,24
1751460553.4176512,24,52,38,34,45,74,26,24
1751460553.43959,24,53,43,38,48,74,27,25
1751460553.460543,38,55,43,38,49,68,26,25
1751460553.499434,73,52,45,42,49,54,26,24
1751460553.5225408,92,56,43,40,44,53,23,23
1751460553.5594163,98,62,47,40,39,64,24,25
1751460553.5813568,99,68,51,40,37,57,25,29
1751460553.6202817,100,70,50,35,31,59,30,33
1751460553.6421955,105,69,46,35,34,54,40,35
1751460553.6801212,120,73,37,31,44,59,43,34
1751460553.702066,114,68,32,30,44,59,43,32
1751460553.7399766,99,65,40,32,47,65,35,31
1751460553.761097,78,64,39,34,45,64,33,33
1751460553.7836103,66,58,39,31,44,58,33,31
1751460553.8210316,86,57,36,34,47,55,32,24
1751460553.8509517,86,55,34,32,48,52,29,24
1751460553.888881,73,48,39,32,59,54,28,19
1751460553.9107914,51,45,42,29,62,51,27,18
1751460553.9427066,34,47,41,32,72,52,26,22
1751460553.964674,31,49,49,35,66,50,25,21
1751460553.9855907,33,48,48,33,59,48,26,22
1751460554.0095286,31,45,45,32,139,46,24,21
1751460554.0305011,44,38,48,32,143,42,27,22
1751460554.0604491,46,52,50,38,192,46,28,21
1751460554.083359,43,50,45,42,210,50,27,22
1751460554.1212897,31,50,42,45,168,61,25,27
1751460554.1432004,31,55,39,41,161,63,25,26
1751460554.1811256,25,58,43,34,73,64,27,23
1751460554.203039,22,61,42,31,66,56,26,24
1751460554.2429645,22,62,51,44,55,53,25,21
1751460554.2648742,22,57,46,60,57,59,24,22
1751460554.2873697,23,56,45,63,53,57,23,22
1751460554.3083062,27,54,52,64,55,57,24,25
1751460554.3402512,41,43,51,57,53,56,25,25
1751460554.3611639,41,43,53,39,49,53,26,24
1751460554.3831325,43,56,55,37,46,54,28,26
1751460554.428012,60,59,49,35,34,53,30,22
1751460554.4599035,64,67,47,36,35,51,29,24
1751460554.480957,62,63,55,33,31,51,26,21
1751460554.5029254,55,63,55,33,39,50,28,21
1751460554.5423567,42,71,61,35,44,49,26,24
1751460554.5643535,41,65,59,33,43,43,25,24
1751460554.5872965,42,61,50,33,49,39,27,25
1751460554.6231961,50,62,47,36,41,46,25,25
1751460554.648103,42,58,44,32,39,45,24,28
1751460554.6830287,57,57,50,32,38,44,26,27
1751460554.7219338,51,65,54,32,36,46,27,26
1751460554.744849,50,59,48,31,37,45,27,23
1751460554.7678423,42,59,46,30,33,56,24,24
1751460554.802874,58,50,41,37,48,66,25,28
1751460554.8268096,62,53,41,40,54,72,24,28
1751460554.8647397,123,68,46,43,58,70,25,28
1751460554.8876774,121,74,46,36,55,68,28,29
1751460554.9235811,128,78,44,33,40,58,26,29
1751460554.9604843,73,70,51,31,44,60,27,26
1751460554.9833953,63,63,53,38,51,59,27,24
1751460555.0222912,62,62,59,41,57,61,27,22
1751460555.0452619,63,62,59,41,65,67,29,24
1751460555.0751538,64,68,56,44,65,68,30,23
1751460555.0961204,64,82,51,39,68,66,29,26
1751460555.1190445,71,80,47,37,72,67,29,26
1751460555.1419723,81,76,42,35,67,64,41,45
1751460555.1630356,114,71,34,32,69,65,45,50
1751460555.1859198,115,52,29,37,81,76,49,50
1751460555.2238185,114,65,32,42,101,86,44,42
1751460555.245787,143,80,35,42,96,90,62,91
1751460555.282859,167,79,36,39,77,102,99,130
1751460555.3077655,168,78,38,37,59,104,99,130
1751460555.3506777,140,61,41,35,71,94,86,104
1751460555.3736186,129,69,41,35,71,75,44,66
1751460555.4035397,143,78,40,39,73,65,50,52
1751460555.4254813,187,85,35,35,64,75,53,52
1751460555.4634094,188,83,32,37,61,86,58,42
1751460555.4853776,191,79,33,37,57,88,47,36
1751460555.5238159,155,75,45,37,95,80,47,34
1751460555.5457861,153,83,52,43,102,76,47,34
1751460555.5851567,115,93,59,43,104,82,44,31
1751460555.606101,152,104,66,44,103,84,40,35
1751460555.6300373,172,112,63,44,61,82,40,37
1751460555.6519785,194,107,59,40,54,82,37,41
1751460555.6749492,203,106,58,41,53,78,37,40
1751460555.7108655,172,79,50,41,52,71,30,34
1751460555.7427683,158,68,51,40,50,75,31,32
1751460555.7633696,129,82,47,35,67,64,30,28
1751460555.7852745,129,82,49,38,71,68,30,27
1751460555.810182,124,76,47,40,89,72,33,28
1751460555.8311255,125,73,44,38,96,69,32,27
1751460555.8624797,120,76,45,41,98,89,33,28
1751460555.884886,109,60,38,36,82,81,32,31
1751460555.906934,103,75,38,34,84,87,29,30
1751460555.9299,90,78,43,39,84,88,28,30
1751460555.9654999,92,72,39,36,96,71,25,29
1751460555.988412,87,71,39,38,98,71,25,26
1751460556.026339,89,45,30,34,75,46,23,25
1751460556.0482714,72,42,30,39,92,50,23,24
1751460556.0861814,76,53,30,92,104,46,24,22
1751460556.1080923,94,65,33,92,103,54,26,26
1751460556.1529984,128,77,34,93,81,53,42,30
1751460556.1848865,131,73,33,42,63,52,46,30
1751460556.2068613,120,66,33,45,76,52,44,28
1751460556.2297654,117,63,33,44,79,52,44,29
1751460556.2676919,102,66,35,40,75,59,32,28
1751460556.2882953,97,64,37,42,87,62,31,31
1751460556.3262033,100,66,43,86,94,68,30,29
1751460556.3481627,117,69,45,91,92,62,29,35
1751460556.3860614,149,80,64,98,86,73,42,33
1751460556.4169838,170,84,64,75,73,69,42,33
1751460556.4458745,148,74,65,51,66,70,43,26
1751460556.4678423,125,72,66,51,64,66,31,24
1751460556.5057435,102,78,58,82,86,56,31,26
1751460556.5281801,111,78,54,82,87,62,29,28
1751460556.5511315,117,89,56,83,86,63,26,28
1751460556.589647,149,89,61,66,55,60,37,31
1751460556.6255507,148,97,56,48,49,52,39,27
1751460556.6484628,151,86,57,47,49,49,39,27
1751460556.670433,159,91,56,42,57,57,35,25
1751460556.6933434,183,94,52,41,66,72,43,30
1751460556.7183022,198,92,59,42,69,70,42,33
1751460556.73924,198,77,54,40,91,73,42,33
1751460556.761188,196,77,50,39,96,70,42,33
1751460556.7847905,155,65,50,35,114,61,31,28
1751460556.8077147,126,69,42,40,114,67,31,27
1751460556.8296735,118,70,43,47,99,66,30,27
1751460556.8506293,110,67,46,51,117,70,31,27
1751460556.8755383,108,67,45,51,159,69,29,29
1751460556.9034579,72,58,50,80,154,67,26,24
1751460556.9264247,76,61,50,98,171,71,25,25
1751460556.9483387,75,62,48,98,167,70,23,24
1751460556.9703057,75,57,46,99,125,63,24,22
1751460557.0161562,66,64,68,93,202,57,24,22
1751460557.039095,91,63,68,74,201,52,26,21
1751460557.0680454,90,73,69,73,210,73,28,24
1751460557.0909853,85,66,71,72,213,71,29,23
1751460557.1298795,86,83,68,49,111,91,32,33
1751460557.1508517,98,92,70,47,101,87,33,33
1751460557.1877527,107,88,68,75,105,84,34,35
1751460557.2106638,112,83,64,78,108,81,36,33
1751460557.2495596,129,76,44,76,113,79,101,105
1751460557.2720692,132,80,44,77,113,114,121,116
1751460557.2930133,146,79,41,46,78,129,125,117
1751460557.315947,158,79,40,37,62,125,125,118
1751460557.3388577,145,77,36,36,55,125,127,123
1751460557.3678098,155,66,34,29,55,88,57,67
1751460557.3907206,142,64,34,35,52,64,51,66
1751460557.4286456,131,61,44,35,62,69,42,52
1751460557.452554,114,62,135,115,100,68,41,41
1751460557.497434,135,87,148,127,111,68,38,41
1751460557.5193753,127,91,151,128,112,69,40,41
1751460557.5492954,119,91,145,128,179,93,39,38
1751460557.5722618,199,132,133,125,172,91,35,30
1751460557.5952046,187,141,135,127,174,95,46,31
1751460557.6171415,187,141,135,129,174,96,44,28
1751460557.6390872,190,141,85,119,186,71,42,27
1751460557.6679106,99,105,82,142,241,95,41,23
1751460557.690822,97,71,81,147,242,89,31,22
1751460557.7287207,155,121,83,132,203,93,33,30
1751460557.7529495,158,121,69,100,125,78,34,30
1751460557.7731113,159,122,67,85,125,74,33,31
1751460557.8110056,106,66,51,83,104,71,30,26
1751460557.8478756,110,54,49,93,61,75,33,46
1751460557.8708773,128,54,44,90,66,78,33,48
1751460557.8927877,153,60,47,86,67,92,39,60
1751460557.9307132,133,65,57,111,122,82,40,61
1751460557.961603,129,61,56,136,137,79,34,48
1751460557.9905262,93,64,59,148,137,61,29,35
1751460558.013491,87,57,58,149,133,57,27,33
1751460558.0519543,78,59,88,257,72,49,31,29
1751460558.0730815,74,59,90,260,74,45,30,26
1751460558.1109803,90,80,89,257,73,48,30,23
1751460558.132926,97,77,91,188,65,46,31,24
1751460558.1718943,103,78,95,246,134,70,34,25
1751460558.1938043,99,76,94,243,135,76,34,26
1751460558.2307332,160,90,92,224,137,80,33,30
1751460558.253671,165,94,64,114,97,84,30,29
1751460558.2907677,154,85,57,71,84,75,27,30
1751460558.3137114,102,74,57,65,83,80,27,27
1751460558.3526034,85,65,58,69,53,71,28,31
1751460558.3735216,85,61,58,71,57,66,28,31
1751460558.4104483,94,52,58,68,61,63,28,28
1751460558.43336,109,49,62,100,60,62,30,27
1751460558.4722557,113,50,48,137,60,62,27,26
1751460558.4931993,104,46,49,145,66,90,33,25
1751460558.5161695,96,58,48,146,65,133,33,25
1751460558.5535655,88,62,31,125,86,163,39,25
1751460558.5914655,79,63,37,89,97,156,38,25
1751460558.6130912,76,54,36,89,100,118,37,26
1751460558.659965,80,55,38,85,102,163,37,35
1751460558.6879184,80,54,27,50,83,181,38,34
1751460558.7108295,75,53,26,38,74,182,38,33
1751460558.7327979,71,49,27,36,59,150,35,26
1751460558.7708008,69,48,25,30,55,100,25,24
1751460558.7937405,68,47,25,31,93,102,24,23
1751460558.815711,69,45,26,36,101,120,27,24
1751460558.8535795,63,38,24,33,112,127,31,26
1751460558.8758676,66,40,25,32,108,122,32,25
1751460558.9137833,70,45,22,24,68,115,31,24
1751460558.935726,74,50,22,25,57,114,29,22
1751460558.960632,58,43,22,24,50,120,26,21
1751460558.981576,54,44,22,27,48,139,27,21
1751460559.004113,45,41,21,30,57,162,29,21
1751460559.0330355,67,41,22,29,59,169,30,23
1751460559.0559745,69,40,23,30,58,158,30,23
1751460559.0928848,74,39,24,25,52,132,33,24
1751460559.1158142,58,36,23,28,58,137,32,22
1751460559.153713,51,34,23,28,55,128,34,21
1751460559.1836324,45,32,25,27,55,111,33,22
1751460559.2135813,42,34,25,26,45,105,31,19
1751460559.2364912,41,33,24,25,51,105,31,22
1751460559.2584343,53,35,25,25,56,117,32,23
1751460559.2816443,52,33,23,25,56,141,29,20
1751460559.303613,55,33,23,25,65,137,31,20
1751460559.3335907,49,30,26,24,60,138,25,22
1751460559.355534,36,31,27,24,56,113,25,23
1751460559.393054,34,30,26,26,40,81,27,23
1751460559.4159923,32,30,25,27,32,70,28,25
1751460559.4528944,25,24,21,29,36,73,26,21
1751460559.4838986,23,23,22,29,40,73,25,22
1751460559.5148158,29,25,23,29,57,79,25,23
1751460559.53576,26,25,26,30,56,88,25,23
1751460559.5736587,28,31,30,34,55,77,28,21
1751460559.5955994,28,31,29,34,44,117,28,20
1751460559.6334977,26,28,26,34,49,118,27,23
1751460559.655751,26,29,22,28,45,115,25,22
1751460559.693682,26,22,21,26,43,73,26,26
1751460559.7156186,29,22,22,25,42,95,28,25
1751460559.7385573,29,24,24,25,47,109,32,27
1751460559.79142,31,24,22,25,52,115,31,26
1751460559.8143842,28,26,23,24,46,89,29,21
1751460559.835329,28,27,19,21,44,70,26,20
1751460559.8582416,27,26,20,25,44,65,27,23
1751460559.8811789,28,27,20,26,40,62,28,24
1751460559.9180799,32,29,23,31,68,109,29,25
1751460559.9560108,33,30,25,32,73,120,26,21
1751460559.9779506,34,29,24,29,72,115,26,19
1751460560.0247962,31,28,22,27,67,77,25,21
1751460560.0467365,33,27,22,29,76,76,29,22
1751460560.0756598,31,28,22,34,88,76,29,25
1751460560.0986292,31,28,23,33,91,75,28,25
1751460560.1355278,27,27,26,28,75,66,29,24
1751460560.1584392,31,27,25,26,62,68,32,25
1751460560.181667,31,28,26,24,60,70,31,22
1751460560.2182858,32,29,25,25,51,71,33,22
1751460560.2562025,29,27,25,27,46,65,29,25
1751460560.2784905,30,27,24,26,44,61,29,27
1751460560.3243427,32,26,26,29,43,66,28,26
1751460560.3463101,32,25,25,27,49,119,27,24
1751460560.3762305,34,26,26,26,58,141,32,22
1751460560.3985827,33,26,26,28,60,146,31,24
1751460560.4354846,29,24,26,27,50,121,31,24
1751460560.458397,28,26,26,30,48,120,27,24
1751460560.4952974,31,30,26,24,48,112,25,24
1751460560.5182364,32,29,26,27,48,109,26,21
1751460560.5561345,29,30,24,26,48,106,26,20
1751460560.5781038,27,27,22,27,47,77,26,21
1751460560.601043,26,27,22,30,43,77,29,22
1751460560.624068,29,28,22,29,47,125,28,23
1751460560.646036,27,29,21,28,48,120,27,23
1751460560.6759284,27,28,26,31,49,122,28,24
